2745.93	153
2744.54	147
2743.15	162
2741.77	144
2740.38	148
2738.99	167
2737.6	160
2736.21	153
2734.82	172
2733.43	180
2732.04	164
2730.65	168
2729.26	175
2727.87	150
2726.47	174
2725.08	158
2723.69	164
2722.29	168
2720.9	161
2719.5	155
2718.11	165
2716.71	158
2715.32	154
2713.92	167
2712.52	162
2711.12	165
2709.72	167
2708.32	169
2706.92	164
2705.52	177
2704.12	175
2702.72	168
2701.32	157
2699.92	180
2698.52	167
2697.11	170
2695.71	170
2694.3	185
2692.9	182
2691.49	166
2690.09	171
2688.68	183
2687.28	165
2685.87	171
2684.46	181
2683.05	178
2681.64	188
2680.23	171
2678.82	188
2677.41	195
2676	185
2674.59	170
2673.18	186
2671.77	184
2670.35	172
2668.94	179
2667.53	167
2666.11	191
2664.7	178
2663.28	194
2661.87	196
2660.45	172
2659.03	166
2657.62	189
2656.2	191
2654.78	188
2653.36	194
2651.94	187
2650.52	183
2649.1	194
2647.68	202
2646.26	175
2644.83	190
2643.41	202
2641.99	177
2640.57	185
2639.14	182
2637.72	185
2636.29	183
2634.87	191
2633.44	185
2632.01	201
2630.59	175
2629.16	206
2627.73	204
2626.3	189
2624.87	207
2623.44	202
2622.01	207
2620.58	188
2619.15	203
2617.72	204
2616.28	185
2614.85	196
2613.42	208
2611.98	200
2610.55	194
2609.11	203
2607.68	188
2606.24	208
2604.81	214
2603.37	181
2601.93	212
2600.49	198
2599.05	208
2597.62	219
2596.18	201
2594.73	206
2593.29	213
2591.85	218
2590.41	218
2588.97	203
2587.53	213
2586.08	199
2584.64	221
2583.19	223
2581.75	204
2580.3	213
2578.86	186
2577.41	235
2575.96	204
2574.52	230
2573.07	209
2571.62	209
2570.17	216
2568.72	224
2567.27	217
2565.82	227
2564.37	211
2562.92	218
2561.47	234
2560.01	215
2558.56	232
2557.1	230
2555.65	223
2554.2	221
2552.74	230
2551.28	238
2549.83	239
2548.37	224
2546.91	257
2545.46	227
2544	237
2542.54	248
2541.08	242
2539.62	217
2538.16	238
2536.7	249
2535.23	236
2533.77	239
2532.31	223
2530.85	243
2529.38	225
2527.92	252
2526.45	214
2524.99	256
2523.52	240
2522.05	217
2520.59	236
2519.12	245
2517.65	238
2516.18	234
2514.71	235
2513.24	236
2511.77	221
2510.3	245
2508.83	241
2507.36	264
2505.89	222
2504.41	243
2502.94	245
2501.47	253
2499.99	238
2498.52	235
2497.04	238
2495.56	251
2494.09	261
2492.61	245
2491.13	240
2489.65	247
2488.17	256
2486.69	245
2485.21	259
2483.73	246
2482.25	250
2480.77	270
2479.29	279
2477.81	254
2476.32	269
2474.84	253
2473.36	255
2471.87	254
2470.38	261
2468.9	275
2467.41	253
2465.93	274
2464.44	267
2462.95	241
2461.46	262
2459.97	271
2458.48	291
2456.99	262
2455.5	253
2454.01	289
2452.52	260
2451.03	282
2449.53	279
2448.04	273
2446.55	265
2445.05	280
2443.56	267
2442.06	274
2440.56	265
2439.07	279
2437.57	264
2436.07	264
2434.57	299
2433.07	291
2431.57	268
2430.07	268
2428.57	280
2427.07	284
2425.57	278
2424.07	272
2422.57	266
2421.06	278
2419.56	270
2418.05	291
2416.55	286
2415.04	285
2413.54	263
2412.03	275
2410.52	270
2409.02	283
2407.51	273
2406	288
2404.49	278
2402.98	285
2401.47	280
2399.96	271
2398.45	276
2396.93	267
2395.42	291
2393.91	300
2392.39	302
2390.88	296
2389.37	282
2387.85	292
2386.33	294
2384.82	293
2383.3	272
2381.78	299
2380.26	296
2378.75	297
2377.23	291
2375.71	288
2374.19	286
2372.66	322
2371.14	317
2369.62	280
2368.1	304
2366.58	305
2365.05	289
2363.53	291
2362	284
2360.48	308
2358.95	289
2357.42	323
2355.9	314
2354.37	310
2352.84	310
2351.31	295
2349.78	272
2348.25	297
2346.72	301
2345.19	309
2343.66	312
2342.13	324
2340.6	303
2339.06	329
2337.53	321
2335.99	318
2334.46	330
2332.92	328
2331.39	329
2329.85	351
2328.31	345
2326.78	357
2325.24	326
2323.7	315
2322.16	338
2320.62	323
2319.08	337
2317.54	341
2316	318
2314.45	307
2312.91	302
2311.37	329
2309.82	337
2308.28	305
2306.73	326
2305.19	325
2303.64	325
2302.09	321
2300.55	319
2299	329
2297.45	335
2295.9	317
2294.35	309
2292.8	328
2291.25	329
2289.7	318
2288.15	331
2286.6	341
2285.04	322
2283.49	355
2281.93	349
2280.38	306
2278.82	335
2277.27	339
2275.71	338
2274.15	327
2272.6	303
2271.04	348
2269.48	364
2267.92	343
2266.36	318
2264.8	340
2263.24	322
2261.68	338
2260.12	332
2258.55	339
2256.99	344
2255.43	331
2253.86	339
2252.3	324
2250.73	340
2249.16	336
2247.6	344
2246.03	344
2244.46	364
2242.89	350
2241.32	348
2239.76	332
2238.18	332
2236.61	354
2235.04	347
2233.47	360
2231.9	362
2230.32	348
2228.75	337
2227.18	324
2225.6	344
2224.03	381
2222.45	350
2220.87	347
2219.3	340
2217.72	344
2216.14	347
2214.56	367
2212.98	368
2211.4	356
2209.82	344
2208.24	358
2206.66	352
2205.08	336
2203.49	358
2201.91	354
2200.33	335
2198.74	344
2197.16	364
2195.57	371
2193.98	353
2192.4	350
2190.81	352
2189.22	380
2187.63	330
2186.04	359
2184.45	369
2182.86	374
2181.27	368
2179.68	375
2178.09	356
2176.49	387
2174.9	391
2173.31	378
2171.71	352
2170.12	388
2168.52	384
2166.92	386
2165.33	391
2163.73	362
2162.13	358
2160.53	372
2158.93	369
2157.33	382
2155.73	399
2154.13	361
2152.53	380
2150.93	395
2149.32	381
2147.72	376
2146.12	383
2144.51	378
2142.91	366
2141.3	379
2139.69	356
2138.09	398
2136.48	387
2134.87	367
2133.26	386
2131.65	394
2130.04	387
2128.43	382
2126.82	388
2125.21	375
2123.6	375
2121.98	392
2120.37	379
2118.76	384
2117.14	394
2115.53	384
2113.91	404
2112.29	380
2110.68	400
2109.06	403
2107.44	374
2105.82	384
2104.2	402
2102.58	404
2100.96	404
2099.34	403
2097.72	416
2096.09	401
2094.47	412
2092.85	416
2091.22	402
2089.6	392
2087.97	405
2086.35	388
2084.72	420
2083.09	391
2081.46	422
2079.83	395
2078.21	372
2076.58	418
2074.95	412
2073.32	411
2071.68	426
2070.05	424
2068.42	437
2066.79	426
2065.15	420
2063.52	397
2061.88	420
2060.25	421
2058.61	423
2056.97	424
2055.33	403
2053.7	420
2052.06	421
2050.42	442
2048.78	424
2047.14	434
2045.5	414
2043.85	439
2042.21	431
2040.57	412
2038.93	411
2037.28	419
2035.64	408
2033.99	440
2032.34	422
2030.7	436
2029.05	444
2027.4	444
2025.75	434
2024.1	437
2022.45	438
2020.8	440
2019.15	430
2017.5	439
2015.85	453
2014.2	433
2012.54	436
2010.89	455
2009.23	432
2007.58	451
2005.92	445
2004.27	458
2002.61	464
2000.95	440
1999.29	432
1997.63	463
1995.97	453
1994.31	452
1992.65	460
1990.99	438
1989.33	490
1987.67	461
1986	490
1984.34	478
1982.68	463
1981.01	461
1979.34	477
1977.68	483
1976.01	455
1974.34	494
1972.68	469
1971.01	451
1969.34	466
1967.67	474
1966	483
1964.33	485
1962.65	490
1960.98	479
1959.31	501
1957.63	492
1955.96	483
1954.28	495
1952.61	486
1950.93	505
1949.26	488
1947.58	520
1945.9	494
1944.22	499
1942.54	475
1940.86	480
1939.18	514
1937.5	495
1935.82	498
1934.13	512
1932.45	524
1930.77	495
1929.08	500
1927.4	511
1925.71	500
1924.03	508
1922.34	500
1920.65	498
1918.96	508
1917.27	494
1915.58	510
1913.89	490
1912.2	519
1910.51	510
1908.82	523
1907.13	507
1905.43	519
1903.74	490
1902.05	513
1900.35	512
1898.66	494
1896.96	522
1895.26	523
1893.56	517
1891.87	532
1890.17	531
1888.47	539
1886.77	524
1885.07	507
1883.37	518
1881.66	504
1879.96	526
1878.26	516
1876.55	522
1874.85	537
1873.14	524
1871.44	533
1869.73	536
1868.02	505
1866.32	545
1864.61	518
1862.9	503
1861.19	540
1859.48	519
1857.77	535
1856.06	535
1854.34	546
1852.63	524
1850.92	534
1849.2	540
1847.49	520
1845.77	529
1844.06	520
1842.34	557
1840.62	562
1838.9	522
1837.19	523
1835.47	552
1833.75	535
1832.03	537
1830.31	545
1828.58	528
1826.86	530
1825.14	538
1823.41	537
1821.69	541
1819.96	540
1818.24	583
1816.51	549
1814.78	563
1813.06	521
1811.33	538
1809.6	536
1807.87	543
1806.14	540
1804.41	521
1802.68	535
1800.95	526
1799.21	550
1797.48	542
1795.75	549
1794.01	542
1792.28	541
1790.54	551
1788.8	531
1787.06	575
1785.33	521
1783.59	539
1781.85	550
1780.11	534
1778.37	524
1776.63	559
1774.88	542
1773.14	559
1771.4	535
1769.66	554
1767.91	554
1766.17	561
1764.42	552
1762.67	542
1760.93	547
1759.18	525
1757.43	575
1755.68	544
1753.93	567
1752.18	550
1750.43	541
1748.68	542
1746.93	566
1745.17	588
1743.42	561
1741.66	563
1739.91	575
1738.15	541
1736.4	556
1734.64	563
1732.88	572
1731.12	556
1729.36	561
1727.61	566
1725.84	574
1724.08	576
1722.32	562
1720.56	585
1718.8	573
1717.03	563
1715.27	542
1713.5	553
1711.74	557
1709.97	589
1708.21	572
1706.44	605
1704.67	583
1702.9	601
1701.13	591
1699.36	580
1697.59	583
1695.82	580
1694.05	581
1692.27	596
1690.5	566
1688.73	606
1686.95	550
1685.18	577
1683.4	576
1681.62	567
1679.84	589
1678.07	585
1676.29	591
1674.51	580
1672.73	566
1670.95	587
1669.16	573
1667.38	576
1665.6	606
1663.82	581
1662.03	586
1660.25	587
1658.46	618
1656.68	575
1654.89	593
1653.1	571
1651.31	598
1649.52	579
1647.73	586
1645.94	583
1644.15	562
1642.36	593
1640.57	596
1638.78	581
1636.98	568
1635.19	585
1633.39	579
1631.6	580
1629.8	593
1628	566
1626.21	601
1624.41	604
1622.61	610
1620.81	601
1619.01	571
1617.21	581
1615.41	598
1613.6	593
1611.8	589
1610	574
1608.19	601
1606.39	593
1604.58	585
1602.77	603
1600.97	599
1599.16	607
1597.35	585
1595.54	613
1593.73	598
1591.92	604
1590.11	592
1588.3	609
1586.48	589
1584.67	597
1582.86	592
1581.04	596
1579.23	607
1577.41	595
1575.59	607
1573.78	594
1571.96	596
1570.14	604
1568.32	600
1566.5	632
1564.68	623
1562.86	614
1561.03	618
1559.21	618
1557.39	602
1555.56	614
1553.74	629
1551.91	625
1550.09	637
1548.26	607
1546.43	613
1544.6	617
1542.77	613
1540.94	593
1539.11	622
1537.28	599
1535.45	595
1533.62	601
1531.78	607
1529.95	583
1528.11	594
1526.28	600
1524.44	603
1522.61	578
1520.77	614
1518.93	585
1517.09	592
1515.25	600
1513.41	615
1511.57	571
1509.73	591
1507.89	594
1506.04	576
1504.2	596
1502.36	606
1500.51	612
1498.66	587
1496.82	606
1494.97	582
1493.12	583
1491.27	604
1489.42	584
1487.57	599
1485.72	615
1483.87	580
1482.02	600
1480.17	606
1478.31	622
1476.46	606
1474.6	614
1472.75	626
1470.89	627
1469.04	623
1467.18	609
1465.32	631
1463.46	651
1461.6	632
1459.74	600
1457.88	607
1456.02	628
1454.15	618
1452.29	624
1450.43	626
1448.56	614
1446.7	624
1444.83	607
1442.96	632
1441.09	635
1439.23	629
1437.36	622
1435.49	598
1433.62	620
1431.75	612
1429.87	637
1428	625
1426.13	623
1424.25	636
1422.38	604
1420.5	605
1418.63	659
1416.75	640
1414.87	636
1412.99	618
1411.11	631
1409.23	614
1407.35	636
1405.47	628
1403.59	629
1401.71	626
1399.83	651
1397.94	646
1396.06	614
1394.17	665
1392.28	661
1390.4	602
1388.51	615
1386.62	625
1384.73	627
1382.84	641
1380.95	629
1379.06	598
1377.17	627
1375.28	636
1373.38	605
1371.49	629
1369.59	607
1367.7	578
1365.8	606
1363.9	579
1362.01	639
1360.11	614
1358.21	595
1356.31	579
1354.41	576
1352.51	614
1350.61	575
1348.7	588
1346.8	594
1344.89	584
1342.99	577
1341.08	574
1339.18	576
1337.27	565
1335.36	554
1333.45	557
1331.54	543
1329.63	558
1327.72	547
1325.81	543
1323.9	535
1321.99	548
1320.07	557
1318.16	532
1316.24	520
1314.33	528
1312.41	538
1310.49	533
1308.58	524
1306.66	504
1304.74	512
1302.82	503
1300.9	529
1298.97	508
1297.05	504
1295.13	500
1293.2	500
1291.28	489
1289.35	494
1287.43	488
1285.5	498
1283.57	476
1281.65	509
1279.72	487
1277.79	502
1275.86	471
1273.92	492
1271.99	493
1270.06	490
1268.13	477
1266.19	496
1264.26	486
1262.32	481
1260.38	487
1258.45	465
1256.51	472
1254.57	487
1252.63	481
1250.69	476
1248.75	489
1246.81	482
1244.87	488
1242.92	475
1240.98	474
1239.03	465
1237.09	489
1235.14	466
1233.2	490
1231.25	475
1229.3	467
1227.35	465
1225.4	485
1223.45	465
1221.5	472
1219.55	448
1217.59	475
1215.64	467
1213.69	485
1211.73	468
1209.77	460
1207.82	464
1205.86	498
1203.9	471
1201.94	448
1199.98	462
1198.02	468
1196.06	473
1194.1	462
1192.14	460
1190.17	459
1188.21	450
1186.25	457
1184.28	471
1182.31	442
1180.35	454
1178.38	457
1176.41	477
1174.44	466
1172.47	459
1170.5	449
1168.53	471
1166.55	483
1164.58	433
1162.61	454
1160.63	447
1158.66	444
1156.68	452
1154.7	431
1152.73	457
1150.75	456
1148.77	448
1146.79	434
1144.81	444
1142.83	457
1140.84	432
1138.86	460
1136.88	455
1134.89	462
1132.91	455
1130.92	460
1128.93	426
1126.95	444
1124.96	449
1122.97	448
1120.98	460
1118.99	469
1117	464
1115	449
1113.01	446
1111.02	460
1109.02	445
1107.03	436
1105.03	463
1103.03	483
1101.04	476
1099.04	477
1097.04	454
1095.04	468
1093.04	470
1091.04	458
1089.04	487
1087.03	467
1085.03	468
1083.02	471
1081.02	469
1079.01	470
1077	484
1075	468
1072.99	464
1070.98	465
1068.97	463
1066.96	464
1064.95	464
1062.94	462
1060.92	483
1058.91	458
1056.89	480
1054.88	478
1052.86	437
1050.84	460
1048.83	495
1046.81	452
1044.79	467
1042.77	453
1040.75	486
1038.73	468
1036.7	462
1034.68	462
1032.66	491
1030.63	473
1028.61	490
1026.58	473
1024.55	451
1022.52	472
1020.5	493
1018.47	481
1016.44	499
1014.41	482
1012.37	466
1010.34	489
1008.31	487
1006.27	488
1004.24	489
1002.2	461
1000.17	495
998.129	474
996.091	494
994.052	463
992.012	479
989.972	492
987.931	475
985.889	511
983.845	496
981.802	490
979.757	490
977.712	518
975.666	516
973.619	498
971.572	527
969.524	535
967.475	531
965.424	514
963.373	509
961.322	510
959.269	508
957.217	522
955.162	527
953.107	515
951.052	511
948.996	508
946.939	537
944.881	502
942.821	516
940.762	516
938.702	520
936.641	521
934.579	529
932.516	538
930.452	534
928.388	524
926.324	557
924.257	539
922.19	529
920.123	549
918.055	530
915.985	533
913.915	546
911.844	515
909.773	537
907.701	539
905.628	557
903.554	531
901.479	546
899.403	549
897.327	540
895.249	553
893.172	530
891.092	553
889.013	557
886.933	498
884.851	535
882.769	521
880.686	551
878.603	541
876.518	549
874.433	548
872.347	537
870.26	528
868.173	543
866.084	529
863.994	536
861.905	549
859.814	550
857.722	530
855.629	553
853.536	552
851.441	539
849.346	555
847.251	563
845.154	549
843.056	524
840.958	552
838.859	534
836.759	532
834.658	561
832.556	562
830.454	520
828.351	555
826.246	540
824.142	529
822.036	523
819.93	548
817.822	520
815.715	538
813.605	539
811.496	546
809.385	508
807.274	526
805.161	525
803.048	526
800.934	511
798.819	530
796.704	515
794.587	535
792.47	503
790.352	520
788.233	537
786.114	560
783.993	524
781.872	546
779.749	522
777.627	541
775.503	536
773.378	536
771.252	537
769.126	517
766.999	535
764.871	530
762.742	538
760.612	537
758.482	539
756.351	526
754.219	541
752.085	523
749.952	529
747.817	528
745.682	537
743.545	539
741.408	534
739.27	531
737.131	524
734.991	567
732.851	522
730.71	521
728.568	554
726.424	542
724.281	532
722.136	529
719.991	519
717.844	555
715.697	503
713.549	518
711.4	505
709.25	504
707.1	528
704.948	512
702.796	511
700.643	537
698.489	534
696.334	498
694.179	506
692.022	470
689.865	515
687.706	509
685.547	497
683.388	481
681.227	501
679.066	508
676.903	505
674.74	499
672.576	501
670.411	483
668.245	514
666.078	493
663.911	482
661.742	499
659.573	498
657.403	489
655.232	499
653.061	501
650.888	498
648.714	497
646.54	511
644.365	528
642.189	521
640.012	507
637.834	507
635.655	522
633.476	520
631.295	505
629.114	528
626.932	510
624.75	497
622.566	486
620.381	509
618.196	508
616.009	501
613.823	521
611.635	503
609.445	527
607.256	516
605.065	503
602.873	487
600.681	498
598.488	514
596.294	506
594.099	492
591.903	516
589.706	507
587.509	507
585.311	499
583.111	518
580.911	510
578.71	482
576.508	488
574.305	502
572.102	483
569.898	505
567.692	511
565.486	512
563.279	511
561.071	494
558.862	501
556.652	512
554.442	492
552.23	510
550.019	501
547.805	505
545.591	506
543.376	506
541.16	493
538.944	503
536.726	523
534.508	509
532.288	517
530.068	529
527.847	502
525.625	540
523.403	545
521.179	545
518.954	525
516.729	535
514.503	530
512.275	517
510.047	525
507.818	543
505.588	526
503.358	551
501.126	533
498.893	541
496.66	536
494.426	547
492.191	520
489.955	525
487.718	545
485.48	552
483.242	554
481.002	526
478.761	519
476.52	541
474.278	536
472.035	519
469.791	545
467.545	534
465.3	531
463.054	544
460.806	530
458.558	537
456.308	527
454.058	554
451.807	538
449.555	571
447.302	575
445.048	550
442.794	577
440.538	561
438.282	546
436.024	556
433.766	559
431.506	563
429.246	587
426.985	563
424.724	582
422.461	548
420.197	580
417.933	566
415.667	568
413.401	601
411.134	548
408.866	614
406.597	567
404.326	580
402.056	595
399.784	584
397.512	609
395.238	576
392.964	586
390.689	614
388.412	600
386.135	601
383.857	574
381.578	581
379.298	587
377.017	624
374.736	589
372.453	603
370.169	611
367.885	600
365.599	636
363.313	613
361.026	614
358.738	602
356.449	646
354.16	608
351.869	653
349.577	639
347.285	629
344.991	635
342.697	618
340.401	631
338.105	620
335.808	635
333.509	644
331.211	649
328.91	634
326.61	658
324.308	640
322.006	652
319.702	651
317.397	677
315.092	663
312.786	662
310.479	694
308.17	674
305.862	683
303.551	678
301.24	711
298.928	677
296.616	673
294.302	714
291.987	717
289.672	726
287.356	727
285.039	749
282.72	755
280.401	785
278.08	753
275.76	766
273.437	777
271.114	794
268.791	781
266.466	805
264.14	799
261.813	809
259.486	843
257.157	833
254.828	861
252.498	868
250.166	921
247.834	950
245.501	967
243.166	969
240.832	1000
238.495	1011
236.158	1005
233.821	1088
231.482	1129
229.142	1154
226.801	1172
224.46	1217
222.117	1272
219.774	1287
217.43	1315
215.085	1428
212.738	1453
210.391	1480
208.043	1498
205.693	1594
203.344	1664
200.992	1679
198.64	1676
196.288	1755
193.934	1931
191.579	1916
189.223	1878
186.867	1972
184.509	2196
182.151	2228
179.791	2190
177.431	2255
175.069	2384
172.707	2636
170.344	2642
167.98	2639
165.615	2706
163.248	2884
160.881	3098
158.514	3111
156.145	3050
153.775	3015
151.404	3120
149.032	3361
146.659	3446
144.285	3527
141.911	3500
139.535	3652
137.158	3917
134.781	4227
132.403	4276
130.023	4318
127.643	4338
125.261	4651
122.879	5072
120.496	5242
118.111	5317
115.726	5467
113.34	5698
110.954	6010
108.565	6437
106.177	6933
103.786	7302
101.395	7737
99.0032	8199
96.6106	8611
94.2161	9313
91.8217	10175
89.4264	11445
87.0292	12814
84.632	14314
82.233	15827
79.8331	17300
77.4322	19207
75.0315	21877
72.6288	26435
70.2252	34942
67.8208	46752
65.4154	64524
63.0091	64524
60.6018	64524
58.1927	64524
55.7837	64524
53.3737	64524
50.9618	64524
48.5501	64524
46.1373	64524
43.7227	64524
41.3072	64524
38.8917	64524
36.4744	64524
34.0561	64524
31.6369	64524
29.2177	64524
26.7967	64524
24.3747	64524
21.9518	64524
19.527	64524
17.1022	64524
14.6766	64524
12.25	64524
9.82148	64524
7.39304	64524
4.96367	64524
2.53238	64524
0.101156	64524
-2.33199	64524
-4.76606	64524
-7.20007	64524
-9.636	64524
-12.0729	64524
-14.5107	64524
-16.9494	64524
-19.389	64524
-21.8296	64524
-24.2712	64524
-26.7136	64524
-29.157	64524
-31.6023	64524
-34.0476	59765
-36.4938	52192
-38.9419	45559
-41.39	39910
-43.84	35024
-46.29	30581
-48.7418	26692
-51.1947	23428
-53.6474	20535
-56.1021	17818
-58.5578	15663
-61.0144	13762
-63.4719	12162
-65.9304	10742
-68.3898	9411
-70.8502	8262
-73.3115	7271
-75.7738	6511
-78.238	5671
-80.7021	4958
-83.1672	4437
-85.6343	3920
-88.1012	3460
-90.5702	3104
-93.0391	2763
-95.5099	2495
-97.9817	2232
-100.453	2026
-102.927	1818
-105.402	1668
-107.877	1514
-110.354	1410
-112.832	1247
-115.31	1133
-117.789	1056
-120.27	973
-122.751	929
-125.234	884
-127.718	797
-130.202	744
-132.688	717
-135.174	649
-137.662	654
-140.15	595
-142.64	570
-145.13	577
-147.622	547
-150.115	515
-152.609	496
-155.103	481
-157.599	461
-160.096	440
-162.593	440
-165.092	424
-167.592	423
-170.092	423
-172.595	394
-175.098	402
-177.601	384
-180.107	388
-182.612	384
-185.119	357
-187.627	373
-190.135	352
-192.646	350
-195.157	326
-197.669	339
-200.182	323
-202.696	324
-205.21	325
-207.727	317
-210.244	326
-212.762	322
-215.281	300
-217.802	305
-220.323	297
-222.845	271
-225.369	311
-227.893	258
-230.418	281
-232.944	279
-235.472	254
-238	254
-240.53	249
-243.06	253
-245.592	256
-248.124	235
-250.658	255
-253.193	251
-255.728	241
-258.265	238
-260.803	242
-263.342	226
-265.882	226
-268.423	207
-270.965	205
-273.508	211
-276.052	223
-278.597	203
-281.143	206
-283.69	211
-286.238	194
-288.787	200
-291.338	180
-293.889	191
-296.441	202
-298.995	179
-301.55	190
-304.105	182
-306.662	174
-309.218	203
-311.777	170
-314.337	169
-316.898	173
-319.46	183
-322.023	160
-324.586	181
-327.151	175
-329.717	169
-332.285	164
-334.853	166
-337.422	161
-339.992	156
-342.563	161
-345.136	150
-347.709	175
-350.283	153
-352.859	154
-355.435	143
-358.013	161
-360.591	144
-363.171	153
-365.752	137
-368.334	140
-370.917	151
-373.5	138
-376.085	129
-378.672	145
-381.259	152
-383.847	140
-386.436	125
-389.027	161
-391.618	133
-394.211	128
-396.804	140
-399.398	131
-401.994	123
-404.591	131
-407.189	140
-409.787	116
-412.388	140
-414.989	112
-417.59	130
-420.194	134
-422.798	120
-425.403	128
-428.01	122
-430.617	123
-433.226	113
-435.836	106
-438.445	126
-441.057	129
-443.67	132
-446.284	125
-448.899	109
-451.516	121
-454.133	113
-456.751	106
-459.37	119
-461.99	131
-464.612	115
-467.234	111
-469.857	111
-472.483	116
-475.108	110
-477.735	114
-480.363	112
-482.992	118
-485.622	112
-488.253	103
-490.885	109
-493.519	116
-496.154	109
-498.789	108
-501.426	114
-504.064	107
-506.702	120
-509.342	101
-511.983	108
-514.625	111
-517.269	126
-519.913	114
-522.558	109
-525.205	100
-527.852	108
-530.501	103
-533.151	93
-535.801	113
-538.453	108
-541.106	124
-543.761	98
-546.416	115
-549.072	95
-551.73	108
-554.388	106
-557.047	105
-559.708	102
-562.37	110
-565.033	108
-567.697	103
-570.362	107
-573.029	99
-575.695	107
-578.364	86
-581.034	114
-583.705	94
-586.376	114
-589.049	114
-591.723	113
-594.398	109
-597.075	103
-599.752	113
-602.43	107
-605.11	99
-607.791	99
-610.472	102
-613.155	105
-615.84	102
-618.525	118
-621.211	108
-623.898	109
-626.587	105
-629.276	125
-631.966	91
-634.659	112
-637.351	121
-640.046	93
-642.741	97
-645.438	132
-648.134	108
-650.833	103
-653.533	131
-656.233	109
-658.936	124
-661.639	102
-664.342	112
-667.048	110
-669.755	113
-672.462	126
-675.171	121
-677.881	108
-680.592	109
-683.304	115
-686.017	103
-688.731	117
-691.447	118
-694.163	101
-696.881	116
-699.6	118
-702.319	117
-705.041	121
-707.763	109
-710.486	130
-713.21	95
-715.937	121
-718.663	103
-721.392	109
-724.12	129
-726.85	114
-729.582	115
-732.314	114
-735.048	115
-737.783	125
-740.519	107
-743.256	114
-745.995	119
-748.733	128
-751.474	105
-754.216	110
-756.958	105
-759.702	124
-762.447	124
-765.193	109
-767.941	103
-770.69	119
-773.439	126
-776.19	116
-778.942	133
-781.695	106
-784.449	124
-787.205	121
-789.961	114
-792.719	131
-795.477	109
-798.238	126
-800.999	129
-803.761	117
-806.525	118
-809.29	123
-812.055	111
-814.822	113
-817.591	121
-820.36	113
-823.131	122
-825.902	120
-828.675	127
-831.449	115
-834.224	115
-837	131
-839.778	118
-842.556	112
-845.336	132
-848.117	132
-850.898	120
-853.682	123
-856.467	124
-859.253	116
-862.04	118
-864.827	124
-867.616	112
-870.406	102
-873.198	118
-875.991	107
-878.784	118
-881.579	118
-884.376	111
-887.173	121
-889.971	114
-892.771	121
-895.572	119
-898.374	116
-901.177	105
-903.982	127
-906.787	103
-909.594	94
-912.402	112
-915.21	119
-918.022	100
-920.833	112
-923.645	109
-926.46	96
-929.274	100
-932.091	96
-934.908	98
-937.726	111
-940.546	104
-943.367	96
-946.19	104
-949.012	87
-951.837	92
-954.664	102
-957.49	98
-960.318	102
-963.147	88
-965.978	88
-968.81	95
-971.643	103
-974.476	91
-977.312	100
-980.149	98
-982.987	100
-985.824	98
-988.665	104
-991.506	100
-994.349	97
-997.193	110
-1000.04	107
-1002.88	96
-1005.73	110
-1008.58	99
-1011.43	107
-1014.28	120
-1017.13	90
-1019.99	105
-1022.84	110
-1025.7	98
-1028.55	110
-1031.41	113
-1034.27	119
-1037.13	119
-1039.99	123
-1042.85	105
-1045.72	127
-1048.58	126
-1051.45	102
-1054.32	116
-1057.19	103
-1060.06	130
-1062.93	131
-1065.8	125
-1068.68	124
-1071.55	128
-1074.43	131
-1077.3	118
-1080.18	121
-1083.06	130
-1085.95	134
-1088.83	140
-1091.71	131
-1094.6	127
-1097.48	125
-1100.37	129
-1103.26	142
-1106.15	142
-1109.04	144
-1111.93	129
-1114.82	163
-1117.72	143
-1120.61	145
-1123.51	128
-1126.41	151
-1129.31	146
-1132.21	142
-1135.11	139
-1138.02	138
-1140.92	166
-1143.83	161
-1146.73	169
-1149.64	188
-1152.55	169
-1155.46	197
-1158.37	197
-1161.29	217
-1164.2	218
-1167.12	217
-1170.03	247
-1172.95	261
-1175.87	259
-1178.79	269
-1181.71	295
-1184.64	320
-1187.56	363
-1190.49	376
-1193.42	419
-1196.34	474
-1199.27	508
-1202.2	580
-1205.13	656
-1208.07	726
-1211	839
-1213.94	930
-1216.87	1024
-1219.81	1128
-1222.75	1293
-1225.69	1448
-1228.63	1623
-1231.58	1872
-1234.52	2070
-1237.47	2275
-1240.42	2486
-1243.36	2694
-1246.31	2898
-1249.26	3175
-1252.22	3470
-1255.17	3743
-1258.12	4003
-1261.08	4269
-1264.04	4540
-1266.99	4739
-1269.95	5862
-1272.91	7162
-1275.88	5899
-1278.84	3926
-1281.8	2266
-1284.77	1535
-1287.74	799
-1290.71	464
-1293.68	399
-1296.65	373
-1299.62	330
-1302.59	300
-1305.57	290
-1308.54	272
-1311.52	261
-1314.5	253
-1317.48	248
-1320.46	229
-1323.44	244
-1326.43	243
-1329.41	235
-1332.4	224
-1335.38	231
-1338.37	238
-1341.36	216
-1344.36	188
-1347.35	192
-1350.34	180
-1353.34	173
-1356.33	174
-1359.33	160
-1362.33	174
-1365.33	170
-1368.33	139
-1371.34	139
-1374.34	138
-1377.35	117
-1380.35	111
-1383.36	104
-1386.37	116
-1389.38	89
-1392.39	103
